Frequency,ADS,,Theory,,HFSS
1000000000,-1.92527226,,-1.955379864,,-1.632349826
1020000000,-1.975685176,,-2.006126818,,-1.67624454
1040000000,-2.025778386,,-2.056494759,,-1.719786033
1060000000,-2.075517141,,-2.106448511,,-1.762939986
1080000000,-2.124867801,,-2.155954155,,-1.805673084
1100000000,-2.173797789,,-2.204978985,,-1.847952978
1120000000,-2.222275547,,-2.253491449,,-1.889748241
1140000000,-2.270270491,,-2.301461106,,-1.931028331
1160000000,-2.317752961,,-2.348858567,,-1.971763541
1180000000,-2.364694172,,-2.395655443,,-2.011924954
1200000000,-2.411066163,,-2.441824288,,-2.051484396
1220000000,-2.456841744,,-2.487338545,,-2.090414381
1240000000,-2.501994441,,-2.532172485,,-2.128688062
1260000000,-2.546498443,,-2.576301153,,-2.166279176
1280000000,-2.590328541,,-2.619700306,,-2.203161988
1300000000,-2.633460074,,-2.662346352,,-2.239311234
1320000000,-2.675868868,,-2.704216292,,-2.274702059
1340000000,-2.717531173,,-2.745287656,,-2.309309959
1360000000,-2.758423598,,-2.785538438,,-2.343110714
1380000000,-2.798523051,,-2.824947036,,-2.376080324
1400000000,-2.837806666,,-2.863492177,,-2.408194939
1420000000,-2.876251732,,-2.901152856,,-2.43943079
1440000000,-2.913835621,,-2.93790826,,-2.469764113
1460000000,-2.950535712,,-2.973737696,,-2.499171072
1480000000,-2.986329303,,-3.008620513,,-2.527627677
1500000000,-3.021193532,,-3.042536023,,-2.555109701
1520000000,-3.055105281,,-3.075463411,,-2.581592592
1540000000,-3.088041078,,-3.107381653,,-2.607051375
1560000000,-3.119976994,,-3.138269411,,-2.631460555
1580000000,-3.150888528,,-3.168104937,,-2.654794013
1600000000,-3.180750485,,-3.196865957,,-2.677024896
1620000000,-3.209536843,,-3.224529558,,-2.698125497
1640000000,-3.237220608,,-3.251072053,,-2.718067134
1660000000,-3.26377365,,-3.276468839,,-2.736820015
1680000000,-3.289166533,,-3.300694247,,-2.7543531
1700000000,-3.313368312,,-3.323721361,,-2.770633956
1720000000,-3.336346324,,-3.345521836,,-2.785628596
1740000000,-3.358065935,,-3.366065679,,-2.799301317
1760000000,-3.378490276,,-3.385321016,,-2.81161453
1780000000,-3.397579929,,-3.403253821,,-2.822528578
1800000000,-3.415292584,,-3.419827617,,-2.832001555
1820000000,-3.431582641,,-3.435003132,,-2.839989119
1840000000,-3.446400761,,-3.44873791,,-2.846444305
1860000000,-3.459693348,,-3.460985867,,-2.851317352
1880000000,-3.471401962,,-3.471696776,,-2.854555537
1900000000,-3.48146263,,-3.480815681,,-2.856103049
1920000000,-3.489805056,,-3.488282214,,-2.855900899
1940000000,-3.4963517,,-3.494029799,,-2.853886912
1960000000,-3.501016705,,-3.497984726,,-2.849995824
1980000000,-3.503704633,,-3.500065066,,-2.844159542
2000000000,-3.50430898,,-3.500179392,,-2.836307645
2020000000,-3.502710422,,-3.498225261,,-2.826368217
2040000000,-3.498774728,,-3.494087419,,-2.814269188
2060000000,-3.492350275,,-3.487635652,,-2.799940373
2080000000,-3.483265058,,-3.478722205,,-2.783316556
2100000000,-3.47132311,,-3.467178679,,-2.764342041
2120000000,-3.45630016,,-3.452812264,,-2.742977381
2140000000,-3.437938361,,-3.435401159,,-2.719209243
2160000000,-3.415939877,,-3.414688968,,-2.693064917
2180000000,-3.389959031,,-3.390377812,,-2.664633668
2200000000,-3.359592681,,-3.362119848,,-2.634098333
2220000000,-3.324368422,,-3.329506761,,-2.601782323
2240000000,-3.283730122,,-3.292056761,,-2.568220076
2260000000,-3.237020325,,-3.24919848,,-2.534263537
2280000000,-3.183459091,,-3.200251151,,-2.501244544
2300000000,-3.122119258,,-3.144400529,,-2.47122482
2320000000,-3.0518991,,-3.080670423,,-2.447384259
2340000000,-2.971495891,,-3.007891045,,-2.434628577
2360000000,-2.879389836,,-2.924668625,,-2.440544527
2380000000,-2.773861858,,-2.829369028,,-2.476899498
2400000000,-2.653102004,,-2.720148195,,-2.561968815
2420000000,-2.515546188,,-2.59511243,,-2.724043431
2440000000,-2.360782255,,-2.452820049,,-3.006407619
2460000000,-2.191895335,,-2.293677974,,-3.473633287
2480000000,-2.021543606,,-2.123737201,,-4.21798741
2500000000,-1.887894359,,-1.96512733,,-5.363889853
2520000000,-1.89605802,,-1.8852142,,-7.071923848
2540000000,-2.315000582,,-2.075738704,,-9.561398256
2560000000,-3.723278553,,-3.026557093,,-13.22073685
2580000000,-6.963201968,,-5.665799139,,-19.05819991
2600000000,-12.72945646,,-10.95614678,,-27.82228081
2620000000,-18.55348253,,-17.19393517,,-20.92669171
2640000000,-15.20110539,,-14.58685019,,-16.0857068
2660000000,-12.0208482,,-11.39722319,,-13.36370919
2680000000,-10.16356096,,-9.550952624,,-11.59893969
2700000000,-8.988110429,,-8.40232425,,-10.35683437
2720000000,-8.184447251,,-7.627421136,,-9.434695999
2740000000,-7.601837823,,-7.070947176,,-8.723309314
2760000000,-7.160024497,,-6.651597428,,-8.158023584
2780000000,-6.812798123,,-6.323266239,,-7.697965454
2800000000,-6.53183693,,-6.058061932,,-7.315998816
2820000000,-6.298886714,,-5.838206175,,-6.993407713
2840000000,-6.101687535,,-5.651871261,,-6.716879576
2860000000,-5.931718294,,-5.490903129,,-6.476699533
2880000000,-5.782882653,,-5.349508998,,-6.26562228
2900000000,-5.650709789,,-5.223466759,,-6.078141932
2920000000,-5.531850106,,-5.109630329,,-5.91000522
2940000000,-5.423746794,,-5.005609903,,-5.757878561
2960000000,-5.324415927,,-4.909559281,,-5.619115253
2980000000,-5.232295593,,-4.820030836,,-5.491589489
3000000000,-5.146140128,,-4.735874381,,-5.373575928
3020000000,-5.064944537,,-4.656165236,,-5.263660956
3040000000,-4.987889536,,-4.580152165,,-5.160676363
3060000000,-4.914300955,,-4.507219062,,-5.06364914
3080000000,-4.84361934,,-4.436856362,,-4.971763033
3100000000,-4.775376872,,-4.368639419,,-4.884328775
3120000000,-4.709179661,,-4.302211957,,-4.800760817
3140000000,-4.64469399,,-4.237273256,,-4.720558967
3160000000,-4.581635542,,-4.173568144,,-4.64329378
3180000000,-4.519760873,,-4.11087909,,-4.568594838
3200000000,-4.458860611,,-4.049019921,,-4.496141283
3220000000,-4.398753987,,-3.987830773,,-4.425654119
3240000000,-4.339284409,,-3.927174019,,-4.356889904
3260000000,-4.280315849,,-3.866930949,,-4.289635553
3280000000,-4.221729886,,-3.806999057,,-4.223704045
3300000000,-4.163423258,,-3.747289806,,-4.158930832
3320000000,-4.105305843,,-3.68772678,,-4.095170848
3340000000,-4.047298963,,-3.628244144,,-4.032295985
3360000000,-3.989333977,,-3.568785356,,-3.970192966
3380000000,-3.931351093,,-3.509302098,,-3.908761542
3400000000,-3.873298365,,-3.44975336,,-3.847912954
3420000000,-3.815130847,,-3.390104678,,-3.787568622
3440000000,-3.756809874,,-3.330327484,,-3.72765902
3460000000,-3.698302449,,-3.270398558,,-3.66812271
3480000000,-3.639580726,,-3.210299554,,-3.608905504
3500000000,-3.580621561,,-3.150016605,,-3.549959745
3520000000,-3.521406135,,-3.089539979,,-3.491243683
3540000000,-3.461919627,,-3.028863788,,-3.432720925
3560000000,-3.402150937,,-2.967985737,,-3.374359968
3580000000,-3.342092446,,-2.906906912,,-3.316133777
3600000000,-3.281739814,,-2.845631593,,-3.258019428
3620000000,-3.221091807,,-2.784167097,,-3.199997789
3640000000,-3.160150147,,-2.722523642,,-3.142053238
3660000000,-3.098919387,,-2.660714232,,-3.08417342
3680000000,-3.037406802,,-2.598754547,,-3.026349027
3700000000,-2.975622299,,-2.536662865,,-2.96857361
3720000000,-2.913578339,,-2.474459973,,-2.910843403
3740000000,-2.851289875,,-2.412169108,,-2.853157179
3760000000,-2.788774291,,-2.349815885,,-2.795516109
3780000000,-2.726051362,,-2.287428249,,-2.737923647
3800000000,-2.663143206,,-2.225036415,,-2.680385417
3820000000,-2.600074257,,-2.16267282,,-2.62290912
3840000000,-2.536871232,,-2.100372072,,-2.565504445
3860000000,-2.4735631,,-2.038170902,,-2.508182986
3880000000,-2.410181061,,-1.976108111,,-2.450958173
3900000000,-2.346758521,,-1.914224515,,-2.393845201
3920000000,-2.283331062,,-1.852562889,,-2.336860965
3940000000,-2.219936418,,-1.791167903,,-2.280024002
3960000000,-2.156614448,,-1.730086058,,-2.223354434
3980000000,-2.093407097,,-1.669365606,,-2.166873912
4000000000,-2.030358365,,-1.609056471,,-2.110605559
4020000000,-1.967514258,,-1.54921016,,-2.054573921
4040000000,-1.904922743,,-1.489879664,,-1.998804909
4060000000,-1.842633689,,-1.431119345,,-1.943325746
4080000000,-1.780698803,,-1.372984822,,-1.888164912
4100000000,-1.719171556,,-1.315532842,,-1.833352087
4120000000,-1.658107097,,-1.258821134,,-1.77891809
4140000000,-1.59756216,,-1.202908262,,-1.724894817
4160000000,-1.537594957,,-1.147853459,,-1.671315177
4180000000,-1.478265061,,-1.093716452,,-1.618213023
4200000000,-1.41963327,,-1.040557277,,-1.565623082
4220000000,-1.36176147,,-0.988436079,,-1.513580874
4240000000,-1.304712473,,-0.937412906,,-1.462122638
4260000000,-1.248549844,,-0.887547486,,-1.411285244
4280000000,-1.193337722,,-0.838899007,,-1.361106106
4300000000,-1.139140617,,-0.791525876,,-1.311623089
4320000000,-1.0860232,,-0.745485475,,-1.262874409
4340000000,-1.03405008,,-0.70083392,,-1.214898532
4360000000,-0.983285565,,-0.657625802,,-1.167734071
4380000000,-0.93379342,,-0.615913935,,-1.121419669
4400000000,-0.885636602,,-0.575749105,,-1.075993888
4420000000,-0.838877004,,-0.537179813,,-1.031495091
4440000000,-0.793575174,,-0.500252028,,-0.987961319
4460000000,-0.749790045,,-0.465008944,,-0.945430165
4480000000,-0.707578648,,-0.431490748,,-0.903938649
4500000000,-0.666995834,,-0.399734394,,-0.863523087
4520000000,-0.628093994,,-0.369773393,,-0.824218965
4540000000,-0.590922781,,-0.341637619,,-0.7860608
4560000000,-0.555528841,,-0.315353129,,-0.749082018
4580000000,-0.521955556,,-0.290942006,,-0.713314819
4600000000,-0.490242787,,-0.26842222,,-0.678790049
4620000000,-0.460426648,,-0.247807515,,-0.645537077
4640000000,-0.432539283,,-0.229107312,,-0.613583668
4660000000,-0.406608673,,-0.212326652,,-0.582955871
4680000000,-0.382658455,,-0.197466144,,-0.553677902
4700000000,-0.360707771,,-0.184521963,,-0.525772037
4720000000,-0.340771143,,-0.173485851,,-0.499258517
4740000000,-0.322858372,,-0.164345163,,-0.474155447
4760000000,-0.306974467,,-0.157082927,,-0.45047872
4780000000,-0.293119603,,-0.151677935,,-0.428241939
4800000000,-0.281289109,,-0.148104853,,-0.407456351
4820000000,-0.271473484,,-0.14633436,,-0.388130795
4840000000,-0.263658448,,-0.146333301,,-0.370271656
4860000000,-0.257825015,,-0.148064863,,-0.353882833
4880000000,-0.2539496,,-0.151488768,,-0.338965718
4900000000,-0.252004147,,-0.156561477,,-0.325519187
4920000000,-0.251956289,,-0.163236414,,-0.313539604
4940000000,-0.253769521,,-0.171464192,,-0.303020832
4960000000,-0.257403409,,-0.181192855,,-0.293954259
4980000000,-0.2628138,,-0.192368118,,-0.286328839
5000000000,-0.269953063,,-0.204933617,,-0.280131138
5020000000,-0.278770333,,-0.218831158,,-0.27181271
5040000000,-0.289211773,,-0.234000963,,-0.269321632
5060000000,-0.301220839,,-0.25038192,,-0.268187094
5080000000,-0.314738555,,-0.267911818,,-0.268382035
5100000000,-0.329703786,,-0.286527589,,-0.269877191
5120000000,-0.346053516,,-0.306165528,,-0.272641216
5140000000,-0.363723121,,-0.32676152,,-0.276640801
5160000000,-0.382646639,,-0.348251243,,-0.281840805
5180000000,-0.402757035,,-0.370570372,,-0.288204387
5200000000,-0.423986457,,-0.393654759,,-0.295693139
5220000000,-0.446266483,,-0.417440618,,-0.304267227
5240000000,-0.469528355,,-0.441864677,,-0.31388553
5260000000,-0.493703209,,-0.466864337,,-0.324505777
5280000000,-0.51872228,,-0.492377806,,-0.336084686
5300000000,-0.544517106,,-0.518344225,,-0.348578103
5320000000,-0.571019711,,-0.54470378,,-0.361941135
5340000000,-0.598162774,,-0.571397805,,-0.376128282
5360000000,-0.625879785,,-0.598368867,,-0.391093567
5380000000,-0.654105189,,-0.625560848,,-0.406790659
5400000000,-0.682774511,,-0.652919009,,-0.423172988
5420000000,-0.711824474,,-0.680390047,,-0.440193868
5440000000,-0.741193091,,-0.70792214,,-0.457806597
5460000000,-0.770819761,,-0.735464987,,-0.475964565
5480000000,-0.800645339,,-0.762969837,,-0.494621348
5500000000,-0.830612197,,-0.790389506,,-0.513730802
5520000000,-0.860664281,,-0.817678394,,-0.533247143
5540000000,-0.890747147,,-0.84479249,,-0.553125027
5560000000,-0.920807996,,-0.871689373,,-0.573319624
5580000000,-0.950795692,,-0.89832821,,-0.593786681
5600000000,-0.980660779,,-0.924669738,,-0.61448258
5620000000,-1.010355487,,-0.950676261,,-0.635364394
5640000000,-1.039833726,,-0.97631162,,-0.656389935
5660000000,-1.069051086,,-1.001541182,,-0.677517794
5680000000,-1.097964819,,-1.026331806,,-0.698707377
5700000000,-1.126533821,,-1.050651822,,-0.71991894
5720000000,-1.154718614,,-1.074471001,,-0.741113609
5740000000,-1.182481311,,-1.097760519,,-0.762253409
5760000000,-1.209785597,,-1.12049293,,-0.783301276
5780000000,-1.236596688,,-1.142642132,,-0.804221072
5800000000,-1.262881299,,-1.164183326,,-0.824977597
5820000000,-1.288607608,,-1.185092991,,-0.845536588
5840000000,-1.313745215,,-1.205348839,,-0.865864729
5860000000,-1.338265105,,-1.224929787,,-0.885929646
5880000000,-1.362139605,,-1.243815918,,-0.905699905
5900000000,-1.385342344,,-1.261988447,,-0.925145008
5920000000,-1.407848211,,-1.279429685,,-0.944235383
5940000000,-1.429633316,,-1.296123008,,-0.962942373
5960000000,-1.450674943,,-1.312052823,,-0.981238228
5980000000,-1.470951514,,-1.327204533,,-0.999096089
6000000000,-1.490442548,,-1.341564511,,-1.016489977
6020000000,-1.509128619,,-1.355120063,,-1.033394771
6040000000,-1.526991318,,-1.367859406,,-1.049786199
6060000000,-1.544013218,,-1.379771634,,-1.065640816
6080000000,-1.560177833,,-1.390846697,,-1.080935991
6100000000,-1.575469587,,-1.401075371,,-1.095649883
6120000000,-1.589873776,,-1.410449237,,-1.109761427
6140000000,-1.603376539,,-1.418960659,,-1.123250318
6160000000,-1.615964825,,-1.42660276,,-1.136096989
6180000000,-1.627626365,,-1.433369407,,-1.148282596
6200000000,-1.638349642,,-1.439255194,,-1.159789
6220000000,-1.64812387,,-1.444255419,,-1.170598753
6240000000,-1.656938965,,-1.448366081,,-1.180695083
6260000000,-1.664785528,,-1.451583858,,-1.190061877
6280000000,-1.671654822,,-1.453906104,,-1.198683672
6300000000,-1.677538758,,-1.455330837,,-1.206545643
6320000000,-1.682429876,,-1.455856736,,-1.213633595
6340000000,-1.686321339,,-1.455483136,,-1.219933952
6360000000,-1.689206918,,-1.454210025,,-1.225433757
6380000000,-1.691080987,,-1.452038051,,-1.230120671
6400000000,-1.691938525,,-1.448968521,,-1.233982968
6420000000,-1.691775107,,-1.445003412,,-1.237009546
6440000000,-1.690586917,,-1.44014538,,-1.239189933
6460000000,-1.688370752,,-1.434397773,,-1.240514304
6480000000,-1.685124035,,-1.427764653,,-1.240973494
6500000000,-1.680844835,,-1.420250813,,-1.240559026
6520000000,-1.67553189,,-1.411861808,,-1.239263146
6540000000,-1.669184635,,-1.402603987,,-1.237078857
6560000000,-1.661803243,,-1.392484527,,-1.233999969
6580000000,-1.653388667,,-1.381511482,,-1.230021161
6600000000,-1.643942695,,-1.369693833,,-1.225138048
6620000000,-1.633468016,,-1.357041546,,-1.21934727
6640000000,-1.621968292,,-1.343565642,,-1.212646588
6660000000,-1.609448253,,-1.329278277,,-1.205035008
6680000000,-1.595913793,,-1.314192831,,-1.196512919
6700000000,-1.581372102,,-1.298324015,,-1.187082263
6720000000,-1.565831798,,-1.281687989,,-1.176746726
6740000000,-1.549303097,,-1.264302499,,-1.16551197
6760000000,-1.531798005,,-1.246187037,,-1.153385907
6780000000,-1.513330536,,-1.227363018,,-1.140379009
6800000000,-1.493916973,,-1.207853993,,-1.126504688
6820000000,-1.473576167,,-1.187685885,,-1.11177973
6840000000,-1.452329886,,-1.166887265,,-1.096224813
6860000000,-1.43020322,,-1.14548967,,-1.079865112
6880000000,-1.407225055,,-1.12352797,,-1.062731016
6900000000,-1.383428619,,-1.101040794,,-1.04485897
6920000000,-1.358852132,,-1.078071019,,-1.026292473
6940000000,-1.333539551,,-1.054666347,,-1.007083255
6960000000,-1.307541456,,-1.030879967,,-0.987292674
6980000000,-1.280916079,,-1.006771331,,-0.966993374
7000000000,-1.25373052,,-0.982407064,,-0.946271251
7020000000,-1.226062176,,-0.957862025,,-0.925227801
7040000000,-1.198000425,,-0.933220557,,-0.90398291
7060000000,-1.169648616,,-0.908577957,,-0.882678196
7080000000,-1.141126428,,-0.884042209,,-0.861480998
7100000000,-1.112572664,,-0.859736035,,-0.840589166
7120000000,-1.084148574,,-0.835799332,,-0.820236799
7140000000,-1.056041806,,-0.812392062,,-0.800701145
7160000000,-1.028471125,,-0.789697707,,-0.782310903
7180000000,-1.001692042,,-0.767927389,,-0.765456213
7200000000,-0.976003557,,-0.747324817,,-0.750600702
7220000000,-0.95175623,,-0.728172225,,-0.738295986
7240000000,-0.929361866,,-0.710797532,,-0.729199149
7260000000,-0.909305141,,-0.695582985,,-0.724093776
7280000000,-0.892157566,,-0.682975624,,-0.723915201
7300000000,-0.878594257,,-0.673499978,,-0.729780766
7320000000,-0.869414069,,-0.667773508,,-0.743025887
7340000000,-0.865563737,,-0.666525402,,-0.765246823
7360000000,-0.868166745,,-0.670619515,,-0.798350983
7380000000,-0.878557762,,-0.681082361,,-0.844615462
7400000000,-0.8983235,,-0.699137306,,-0.906754242
7420000000,-0.929350888,,-0.726246317,,-0.987993927
7440000000,-0.973883399,,-0.764160866,,-1.09215713
7460000000,-1.034586153,,-0.81498387,,-1.223751539
7480000000,-1.114620096,,-0.881244774,,-1.388061404
7500000000,-1.217724969,,-0.965990096,,-1.591237043
7520000000,-1.348309966,,-1.072891852,,-1.840377427
7540000000,-1.511550012,,-1.206376201,,-2.143602286
7560000000,-1.713484584,,-1.371774359,,-2.510114904
7580000000,-1.961115492,,-1.575497292,,-2.950267194
7600000000,-2.262500753,,-1.82523513,,-3.475657194
7620000000,-2.626844935,,-2.130181985,,-4.099318366
7640000000,-3.064593722,,-2.501288123,,-4.83610286
7660000000,-3.587553692,,-2.951545867,,-5.703422553
7680000000,-4.2090784,,-3.496325883,,-6.722605002
7700000000,-4.94438786,,-4.15379831,,-7.921278223
7720000000,-5.811114136,,-4.945495086,,-9.337482868
7740000000,-6.83017066,,-5.897070009,,-11.02671094
7760000000,-8.026959133,,-7.039188911,,-13.07360496
7780000000,-9.432510338,,-8.407850849,,-15.60738881
7800000000,-11.08246426,,-10.04084898,,-18.78212875
7820000000,-13.00512973,,-11.95695707,,-22.32660118
7840000000,-15.16470186,,-14.06869291,,-23.4463476
7860000000,-17.25857529,,-15.91716677,,-20.78129514
7880000000,-18.38661079,,-16.49013375,,-17.83677797
7900000000,-17.76868194,,-15.43125865,,-15.529261
7920000000,-16.10506827,,-13.68481699,,-13.74477278
7940000000,-14.3229033,,-11.97581871,,-12.32962101
7960000000,-12.74646961,,-10.50286778,,-11.178297
7980000000,-11.41346879,,-9.270206604,,-10.22140974
8000000000,-10.29168675,,-8.240139539,,-9.412171948
8020000000,-9.341295842,,-7.373525349,,-8.717941068
8040000000,-8.528318706,,-6.63792084,,-8.115201827
8060000000,-7.826001836,,-6.007861695,,-7.586537238
8080000000,-7.21364752,,-5.463581215,,-7.118739354
8100000000,-6.675211196,,-4.989686215,,-6.701589963
8120000000,-6.198147071,,-4.574091869,,-6.327048161
8140000000,-5.772539851,,-4.207219805,,-5.988693305
8160000000,-5.390467561,,-3.881404893,,-5.681333273
8180000000,-5.045534925,,-3.590456446,,-5.400722739
8200000000,-4.732529345,,-3.329331404,,-5.143356555
8220000000,-4.447164628,,-3.093888626,,-4.906315547
8240000000,-4.185887894,,-2.880702267,,-4.687149647
8260000000,-3.945732397,,-2.68691861,,-4.483788104
8280000000,-3.724204101,,-2.510145163,,-4.294469633
8300000000,-3.519193346,,-2.348363969,,-4.117687486
8320000000,-3.328905377,,-2.199863286,,-3.952145819
8340000000,-3.151805227,,-2.063183297,,-3.796724711
8360000000,-2.986573604,,-1.937072678,,-3.650451894
8380000000,-2.832071316,,-1.820453588,,-3.512479729
8400000000,-2.687310382,,-1.712393299,,-3.382066327
8420000000,-2.551430396,,-1.612081036,,-3.258559958
8440000000,-2.423679091,,-1.518808995,,-3.141386108
8460000000,-2.303396241,,-1.431956682,,-3.030036673
8480000000,-2.19000027,,-1.350977938,,-2.924060886
8500000000,-2.082977046,,-1.275390133,,-2.823057657
8520000000,-1.981870468,,-1.20476514,,-2.726669094
8540000000,-1.886274515,,-1.138721743,,-2.634574975
8560000000,-1.795826503,,-1.076919244,,-2.546488033
