fre,l6=16mm,l6=17mm,l6=18mm,,l6=16mm,l6=17mm,l6=18mm,,,l6=16mm,l6=17mm,l6=18mm
Frequency,GD,GD,GD,,GD(ns),GD(ns),GD(ns),,Frequency,Angle,Angle,Angle
1,1.66E-10,1.68E-10,1.70E-10,,0.165726321,0.167537389,0.169512622,,1,-70.62843406,-71.07336918,-71.55782497
1.02,1.65E-10,1.67E-10,1.69E-10,,0.165179255,0.167011304,0.169014169,,1.02,-71.82166357,-72.27963837,-72.77831585
1.04,1.64E-10,1.66E-10,1.68E-10,,0.164096485,0.165971499,0.168031196,,1.04,-73.00701533,-73.47833196,-73.991629
1.06,1.63E-10,1.65E-10,1.67E-10,,0.163036686,0.164956725,0.167076491,,1.06,-74.18465296,-74.66962796,-75.19796507
1.08,1.62E-10,1.64E-10,1.66E-10,,0.16200032,0.163967571,0.166150843,,1.08,-75.3547436,-75.8537088,-76.39753047
1.1,1.61E-10,1.63E-10,1.65E-10,,0.160987809,0.163004591,0.165255022,,1.1,-76.51745757,-77.03076098,-77.59053721
1.12,1.60E-10,1.62E-10,1.64E-10,,0.159999534,0.162068307,0.164389785,,1.12,-77.67296806,-78.20097491,-78.77720279
1.14,1.59E-10,1.61E-10,1.64E-10,,0.159035837,0.161159213,0.163555884,,1.14,-78.82145086,-79.3645446,-79.95775012
1.16,1.58E-10,1.60E-10,1.63E-10,,0.158097033,0.160277783,0.16275407,,1.16,-79.96308412,-80.52166758,-81.13240752
1.18,1.57E-10,1.59E-10,1.62E-10,,0.157183406,0.159424471,0.1619851,,1.18,-81.09804814,-81.67254468,-82.30140872
1.2,1.56E-10,1.59E-10,1.61E-10,,0.156295213,0.158599718,0.161249747,,1.2,-82.22652516,-82.81737997,-83.46499296
1.22,1.55E-10,1.58E-10,1.61E-10,,0.155432694,0.157803954,0.160548803,,1.22,-83.34869921,-83.95638062,-84.62340508
1.24,1.55E-10,1.57E-10,1.60E-10,,0.154596067,0.157037604,0.159883092,,1.24,-84.46475595,-85.0897569,-85.77689573
1.26,1.54E-10,1.56E-10,1.59E-10,,0.153785538,0.156301093,0.15925347,,1.26,-85.57488258,-86.21772212,-86.92572159
1.28,1.53E-10,1.56E-10,1.59E-10,,0.153001301,0.155594848,0.158660842,,1.28,-86.6792677,-87.34049264,-88.07014569
1.3,1.52E-10,1.55E-10,1.58E-10,,0.152243542,0.154919305,0.158106166,,1.3,-87.77810132,-88.45828793,-89.21043772
1.32,1.52E-10,1.54E-10,1.58E-10,,0.151512443,0.154274912,0.157590463,,1.32,-88.87157471,-89.57133064,-90.34687448
1.34,1.51E-10,1.54E-10,1.57E-10,,0.150808182,0.153662131,0.157114831,,1.34,-89.95988049,-90.67984666,-91.47974039
1.36,1.50E-10,1.53E-10,1.57E-10,,0.150130943,0.153081451,0.156680451,,1.36,-91.04321254,-91.78406533,-92.60932805
1.38,1.49E-10,1.53E-10,1.56E-10,,0.149480911,0.152533384,0.156288604,,1.38,-92.12176607,-92.88421955,-93.73593889
1.4,1.49E-10,1.52E-10,1.56E-10,,0.148858282,0.152018477,0.155940681,,1.4,-93.19573765,-93.98054606,-94.85988395
1.42,1.48E-10,1.52E-10,1.56E-10,,0.148263261,0.151537316,0.1556382,,1.42,-94.26532532,-95.07328563,-95.9814847
1.44,1.48E-10,1.51E-10,1.55E-10,,0.14769607,0.151090531,0.155382821,,1.44,-95.33072861,-96.16268341,-97.10107403
1.46,1.47E-10,1.51E-10,1.55E-10,,0.147156948,0.150678808,0.155176367,,1.46,-96.39214873,-97.24898928,-98.21899733
1.48,1.47E-10,1.50E-10,1.55E-10,,0.146646156,0.150302892,0.15502084,,1.48,-97.44978867,-98.33245824,-99.33561372
1.5,1.46E-10,1.50E-10,1.55E-10,,0.14616398,0.1499636,0.154918445,,1.5,-98.50385338,-99.41335092,-100.4512974
1.52,1.46E-10,1.50E-10,1.55E-10,,0.145710734,0.14966183,0.154871619,,1.52,-99.55454998,-100.4919341,-101.5664393
1.54,1.45E-10,1.49E-10,1.55E-10,,0.145286768,0.149398576,0.154883055,,1.54,-100.602088,-101.5684813,-102.6814487
1.56,1.45E-10,1.49E-10,1.55E-10,,0.144892465,0.149174934,0.154955735,,1.56,-101.6466794,-102.6432736,-103.7967553
1.58,1.45E-10,1.49E-10,1.55E-10,,0.144528252,0.148992124,0.155092972,,1.58,-102.6885395,-103.7166003,-104.9128113
1.6,1.44E-10,1.49E-10,1.55E-10,,0.144194603,0.148851505,0.155298447,,1.6,-103.7278863,-104.7887602,-106.0300941
1.62,1.44E-10,1.49E-10,1.56E-10,,0.143892042,0.14875459,0.155576257,,1.62,-104.7649417,-105.860062,-107.149109
1.64,1.44E-10,1.49E-10,1.56E-10,,0.143621149,0.14870307,0.155930976,,1.64,-105.7999317,-106.9308263,-108.2703922
1.66,1.43E-10,1.49E-10,1.56E-10,,0.143382568,0.148698835,0.156367716,,1.66,-106.8330863,-108.0013862,-109.394515
1.68,1.43E-10,1.49E-10,1.57E-10,,0.143177013,0.148743998,0.1568922,,1.68,-107.8646407,-109.0720895,-110.5220873
1.7,1.43E-10,1.49E-10,1.58E-10,,0.143005273,0.148840923,0.157510853,,1.7,-108.8948353,-110.1432998,-111.6537627
1.72,1.43E-10,1.49E-10,1.58E-10,,0.142868222,0.148992253,0.158230905,,1.72,-109.9239166,-111.2153988,-112.7902436
1.74,1.43E-10,1.49E-10,1.59E-10,,0.142766826,0.149200944,0.159060509,,1.74,-110.9521377,-112.2887882,-113.9322877
1.76,1.43E-10,1.49E-10,1.60E-10,,0.142702155,0.149470302,0.160008886,,1.76,-111.9797589,-113.3638924,-115.0807149
1.78,1.43E-10,1.50E-10,1.61E-10,,0.142675389,0.149804019,0.161086497,,1.78,-113.0070487,-114.4411606,-116.2364157
1.8,1.43E-10,1.50E-10,1.62E-10,,0.142687837,0.150206223,0.162305247,,1.8,-114.0342845,-115.5210702,-117.4003605
1.82,1.43E-10,1.51E-10,1.64E-10,,0.142740942,0.150681529,0.163678731,,1.82,-115.0617536,-116.6041302,-118.5736113
1.84,1.43E-10,1.51E-10,1.65E-10,,0.142836303,0.151235096,0.165222533,,1.84,-116.0897541,-117.6908843,-119.7573342
1.86,1.43E-10,1.52E-10,1.67E-10,,0.142975686,0.151872702,0.166954583,,1.86,-117.1185963,-118.7819156,-120.9528157
1.88,1.43E-10,1.53E-10,1.69E-10,,0.143161048,0.152600822,0.168895598,,1.88,-118.148604,-119.8778512,-122.1614802
1.9,1.43E-10,1.53E-10,1.71E-10,,0.143394553,0.153426725,0.171069605,,1.9,-119.1801154,-120.9793674,-123.3849123
1.92,1.44E-10,1.54E-10,1.74E-10,,0.1436786,0.154358588,0.17350459,,1.92,-120.2134855,-122.087196,-124.6248825
1.94,1.44E-10,1.55E-10,1.76E-10,,0.144015849,0.155405635,0.176233273,,1.94,-121.2490873,-123.2021311,-125.8833784
1.96,1.44E-10,1.57E-10,1.79E-10,,0.144409253,0.15657829,0.179294058,,1.96,-122.2873137,-124.3250371,-127.1626417
1.98,1.45E-10,1.58E-10,1.83E-10,,0.14486209,0.157888377,0.182732185,,1.98,-123.3285805,-125.4568584,-128.4652129
2,1.45E-10,1.59E-10,1.87E-10,,0.145378009,0.159349343,0.186601144,,2,-124.3733278,-126.5986298,-129.7939851
2.02,1.46E-10,1.61E-10,1.91E-10,,0.145961075,0.160976536,0.190964415,,2.02,-125.4220238,-127.751489,-131.1522693
2.04,1.47E-10,1.63E-10,1.96E-10,,0.146615821,0.16278753,0.195897635,,2.04,-126.4751673,-128.9166919,-132.5438727
2.06,1.47E-10,1.65E-10,2.01E-10,,0.147347312,0.164802525,0.201491327,,2.06,-127.5332916,-130.0956294,-133.9731953
2.08,1.48E-10,1.67E-10,2.08E-10,,0.148161219,0.167044828,0.207854377,,2.08,-128.5969686,-131.2898482,-135.4453478
2.1,1.49E-10,1.70E-10,2.15E-10,,0.149063899,0.169541428,0.215118502,,2.1,-129.6668132,-132.5010749,-136.9662983
2.12,1.50E-10,1.72E-10,2.23E-10,,0.150062496,0.172323719,0.223444045,,2.12,-130.7434888,-133.7312448,-138.5430543
2.14,1.51E-10,1.75E-10,2.33E-10,,0.151165056,0.175428362,0.233027531,,2.14,-131.8277131,-134.9825365,-140.1838925
2.16,1.52E-10,1.79E-10,2.44E-10,,0.152380659,0.178898371,0.244111557,,2.16,-132.9202656,-136.2574132,-141.8986507
2.18,1.54E-10,1.83E-10,2.57E-10,,0.153719581,0.182784441,0.256997772,,2.18,-134.0219946,-137.558673,-143.699099
2.2,1.55E-10,1.87E-10,2.72E-10,,0.155193477,0.18714662,0.272063941,,2.2,-135.1338275,-138.8895092,-145.5994186
2.22,1.57E-10,1.92E-10,2.90E-10,,0.156815608,0.192056396,0.289786364,,2.22,-136.2567807,-140.2535844,-147.6168197
2.24,1.59E-10,1.98E-10,3.11E-10,,0.158601103,0.197599338,0.31076922,,2.24,-137.3919723,-141.6551213,-149.7723422
2.26,1.61E-10,2.04E-10,3.36E-10,,0.160567278,0.203878449,0.335782595,,2.26,-138.5406366,-143.0990148,-152.0918965
2.28,1.63E-10,2.11E-10,3.66E-10,,0.162734013,0.211018453,0.365810686,,2.28,-139.7041411,-144.590971,-154.6076116
2.3,1.65E-10,2.19E-10,4.02E-10,,0.165124218,0.2191713,0.402110257,,2.3,-140.8840064,-146.1376805,-157.3595704
2.32,1.68E-10,2.29E-10,4.46E-10,,0.167764382,0.228523294,0.446274924,,2.32,-142.0819298,-147.7470377,-160.3979993
2.34,1.71E-10,2.39E-10,5.00E-10,,0.170685259,0.239304353,0.500289554,,2.34,-143.2998135,-149.428416,-163.7859293
2.36,1.74E-10,2.52E-10,5.67E-10,,0.173922692,0.251800098,0.566532693,,2.36,-144.5397975,-151.1930204,-167.6021689
2.38,1.78E-10,2.66E-10,6.48E-10,,0.177518634,0.266367677,0.647628626,,2.38,-145.8043002,-153.0543374,-171.9440001
2.4,1.82E-10,2.83E-10,7.46E-10,,0.181522415,0.283456482,0.745942082,,2.4,-147.0960659,-155.0287149,-176.9280211
2.42,1.86E-10,3.04E-10,8.62E-10,,0.185992302,0.30363518,0.862336476,,2.42,-148.418223,-157.1361107,-182.685566
2.44,1.91E-10,3.28E-10,9.94E-10,,0.190997463,0.327626563,0.993658588,,2.44,-149.774355,-159.4010615,-189.3456664
2.46,1.97E-10,3.56E-10,1.13E-09,,0.196620425,0.356351454,1.128614632,,2.46,-151.1685865,-161.8539332,-196.9942497
2.48,2.03E-10,3.91E-10,1.24E-09,,0.20296018,0.390981338,1.242896032,,2.48,-152.6056892,-164.5325224,-205.5977171
2.5,2.10E-10,4.33E-10,1.30E-09,,0.21013613,0.43299493,1.296066541,,2.5,-154.0912131,-167.4840645,-214.8919526
2.52,2.18E-10,4.84E-10,1.23E-09,,0.218293116,0.484222539,1.228293643,,2.52,-155.6316494,-170.7676494,-224.2610752
2.54,2.28E-10,5.47E-10,9.18E-10,,0.227607863,0.546835698,0.918000204,,2.54,-157.234634,-174.4568691,-232.579381
2.56,2.38E-10,6.23E-10,-2.60E-10,,0.23829726,0.623181752,-0.259992686,,2.56,-158.9092027,-178.6420835,-237.4802782
2.58,2.51E-10,7.15E-10,-6.27E-09,,0.250629028,0.715246353,-6.265794498,,2.58,-160.6661145,-183.4306863,-228.8354863
2.6,2.65E-10,8.23E-10,-7.78E-09,,0.264935438,0.823318424,-7.780892295,,2.6,-162.5182607,-188.941631,-147.2528374
2.62,2.82E-10,9.43E-10,-2.26E-09,,0.281630883,0.943136956,-2.255965988,,2.62,-164.4811848,-195.2864716,-116.7906373
2.64,3.01E-10,1.06E-09,-5.71E-12,,0.301234103,1.060531974,-0.005711907,,2.64,-166.5737454,-202.5228031,-114.7669272
2.66,3.24E-10,1.14E-09,3.29E-10,,0.324395625,1.142160937,0.328544348,,2.66,-168.8189559,-210.558132,-116.7083858
2.68,3.52E-10,1.12E-09,3.95E-10,,0.351929975,1.115629708,0.395459446,,2.68,-171.2450424,-218.9699206,-119.4979658
2.7,3.85E-10,7.78E-10,3.97E-10,,0.384849528,0.778468574,0.396511594,,2.7,-173.8867475,-226.6231998,-122.4030018
2.72,4.24E-10,-1.13E-09,3.78E-10,,0.424390224,-1.126749373,0.378305057,,2.72,-176.7868756,-230.1798681,-125.2077328
2.74,4.72E-10,-7.12E-09,3.55E-10,,0.472003864,-7.116884771,0.355234509,,2.74,-179.9979668,-210.3980089,-127.8505947
2.76,5.29E-10,-6.71E-09,3.32E-10,,0.529256567,-6.709010315,0.332294327,,2.76,-183.5837312,-127.6967274,-130.3231097
2.78,5.97E-10,-8.92E-10,3.11E-10,,0.597494709,-0.892250814,0.311204667,,2.78,-187.6192613,-113.7882603,-132.635633
2.8,6.77E-10,3.12E-10,2.92E-10,,0.676966688,0.312337857,0.292438102,,2.8,-192.187655,-114.8483157,-134.8044569
2.82,7.65E-10,5.02E-10,2.76E-10,,0.764698129,0.502476476,0.275979761,,2.82,-197.3675816,-118.2859255,-136.8467416
2.84,8.49E-10,5.18E-10,2.62E-10,,0.849430377,0.517852845,0.261634323,,2.84,-203.1993081,-122.0839769,-138.7785655
2.86,8.99E-10,4.90E-10,2.49E-10,,0.898561704,0.489654745,0.249154322,,2.86,-209.5993791,-125.7430064,-140.6142759
2.88,8.14E-10,4.52E-10,2.38E-10,,0.813884036,0.451563431,0.238293427,,2.88,-216.1385966,-129.1350053,-142.3663877
2.9,1.69E-10,4.14E-10,2.29E-10,,0.16911827,0.413985148,0.228827027,,2.9,-221.3193092,-132.2455198,-144.0457012
2.92,-4.19E-09,3.80E-10,2.21E-10,,-4.185999746,0.380114907,0.220558429,,2.92,-218.5738997,-135.0963914,-145.6614969
2.94,-7.36E-09,3.51E-10,2.13E-10,,-7.3609699,0.350638211,0.213318832,,2.94,-161.0409128,-137.7191745,-147.2217426
2.96,-3.51E-09,3.25E-10,2.07E-10,,-3.514536855,0.32535172,0.206964845,,2.96,-112.5759332,-140.1455816,-148.7332881
2.98,1.37E-10,3.04E-10,2.01E-10,,0.13672209,0.303770741,0.201375218,,2.98,-110.4315821,-142.4042393,-150.2020364
3,6.43E-10,2.85E-10,1.96E-10,,0.64256354,0.285362822,0.196447572,,3,-114.5447313,-144.5198803,-151.6330912
3.02,7.06E-10,2.70E-10,1.92E-10,,0.705951788,0.269633954,0.192095413,,3.02,-119.6844971,-146.5134639,-153.0308814
3.04,6.70E-10,2.56E-10,1.88E-10,,0.669606856,0.256155052,0.188245541,,3.04,-124.710437,-148.4026093,-154.3992652
3.06,6.09E-10,2.45E-10,1.85E-10,,0.609419648,0.244564528,0.184835849,,3.06,-129.3268358,-150.2020966,-155.7416172
3.08,5.48E-10,2.35E-10,1.82E-10,,0.548162103,0.234561978,0.18181349,,3.08,-133.48608,-151.9243384,-157.0609014
3.1,4.93E-10,2.26E-10,1.79E-10,,0.492921636,0.225899353,0.179133351,,3.1,-137.2203701,-153.5797891,-158.3597314
3.12,4.45E-10,2.18E-10,1.77E-10,,0.445342656,0.218372154,0.176756791,,3.12,-140.5841515,-155.1772891,-159.6404216
3.14,4.05E-10,2.12E-10,1.75E-10,,0.405133021,0.211811612,0.174650601,,3.14,-143.6333044,-156.7243481,-160.9050292
3.16,3.71E-10,2.06E-10,1.73E-10,,0.371387362,0.206078094,0.172786143,,3.16,-146.418067,-158.2273764,-162.1553903
3.18,3.43E-10,2.01E-10,1.71E-10,,0.343095907,0.201055669,0.171138636,,3.18,-148.9812824,-159.6918727,-163.3931497
3.2,3.19E-10,1.97E-10,1.70E-10,,0.319329353,0.196647699,0.16968657,,3.2,-151.3586481,-161.122578,-164.6197867
3.22,2.99E-10,1.93E-10,1.68E-10,,0.299292874,0.192773286,0.168411209,,3.22,-153.5796251,-162.5235996,-165.8366363
3.24,2.82E-10,1.89E-10,1.67E-10,,0.282328805,0.189364412,0.167296184,,3.24,-155.6684655,-163.8985133,-167.0449081
3.26,2.68E-10,1.86E-10,1.66E-10,,0.267901241,0.186363635,0.166327151,,3.26,-157.6451598,-165.2504471,-168.2457014
3.28,2.56E-10,1.84E-10,1.65E-10,,0.255576193,0.183722229,0.1654915,,3.28,-159.5262433,-166.5821496,-169.440019
3.3,2.45E-10,1.81E-10,1.65E-10,,0.245002633,0.18139869,0.164778117,,3.3,-161.325457,-167.8960472,-170.628779
3.32,2.36E-10,1.79E-10,1.64E-10,,0.235896163,0.179357515,0.164177176,,3.32,-163.0542813,-169.1942908,-171.8128239
3.34,2.28E-10,1.78E-10,1.64E-10,,0.22802559,0.177568208,0.163679965,,3.34,-164.7223618,-170.4787954,-172.9929303
3.36,2.21E-10,1.76E-10,1.63E-10,,0.221202166,0.176004477,0.163278742,,3.36,-166.3378498,-171.751273,-174.1698154
3.38,2.15E-10,1.75E-10,1.63E-10,,0.215271035,0.174643561,0.162966603,,3.38,-167.907673,-173.0132599,-175.3441442
3.4,2.10E-10,1.73E-10,1.63E-10,,0.210104499,0.173465688,0.16273738,,3.4,-169.4377527,-174.2661402,-176.5165345
3.42,2.06E-10,1.72E-10,1.63E-10,,0.2055967,0.172453619,0.162585545,,3.42,-170.9331777,-175.5111658,-177.6875625
3.44,2.02E-10,1.72E-10,1.63E-10,,0.201659422,0.171592268,0.16250613,,3.44,-172.3983451,-176.7494724,-178.8577664
3.46,1.98E-10,1.71E-10,1.62E-10,,0.198218775,0.170868392,0.162494657,,3.46,-173.8370734,-177.9820944,179.9723493
3.48,1.95E-10,1.70E-10,1.63E-10,,0.19521255,0.170270326,0.162547082,,3.48,-175.2526955,-179.2099772,178.8023106
3.5,1.93E-10,1.70E-10,1.63E-10,,0.192588116,0.169787757,0.162659739,,3.5,-176.6481341,179.5660129,177.6316713
3.52,1.90E-10,1.69E-10,1.63E-10,,0.190300735,0.169411544,0.162829293,,3.52,-178.0259644,178.3450791,176.4600103
3.54,1.88E-10,1.69E-10,1.63E-10,,0.188312198,0.16913355,0.163052705,,3.54,-179.3884647,177.1264866,175.2869295
3.56,1.87E-10,1.69E-10,1.63E-10,,0.186589727,0.168946515,0.163327193,,3.56,179.26234,175.909556,174.1120514
3.58,1.85E-10,1.69E-10,1.64E-10,,0.185105078,0.168843936,0.163650201,,3.58,177.9246432,174.6936568,172.9350179
3.6,1.84E-10,1.69E-10,1.64E-10,,0.183833813,0.168819968,0.164019374,,3.6,176.5968269,173.4782033,171.7554885
3.62,1.83E-10,1.69E-10,1.64E-10,,0.182754696,0.16886934,0.16443253,,3.62,175.2774363,172.2626493,170.5731389
3.64,1.82E-10,1.69E-10,1.65E-10,,0.181849198,0.168987282,0.164887641,,3.64,173.9651592,171.0464848,169.3876601
3.66,1.81E-10,1.69E-10,1.65E-10,,0.181101088,0.169169458,0.165382813,,3.66,172.6588078,169.8292324,168.1987569
3.68,1.80E-10,1.69E-10,1.66E-10,,0.180496087,0.169411914,0.165916268,,3.68,171.3573036,168.6104446,167.0061476
3.7,1.80E-10,1.70E-10,1.66E-10,,0.180021586,0.169711026,0.166486327,,3.7,170.0596642,167.3897009,165.8095626
3.72,1.80E-10,1.70E-10,1.67E-10,,0.179666403,0.170063462,0.167091399,,3.72,168.7649927,166.1666058,164.6087444
3.74,1.79E-10,1.70E-10,1.68E-10,,0.179420583,0.170466141,0.167729965,,3.74,167.472468,164.940787,163.4034465
3.76,1.79E-10,1.71E-10,1.68E-10,,0.179275222,0.170916199,0.168400568,,3.76,166.1813364,163.7118934,162.1934329
3.78,1.79E-10,1.71E-10,1.69E-10,,0.179222328,0.171410967,0.169101799,,3.78,164.8909048,162.4795938,160.9784783
3.8,1.79E-10,1.72E-10,1.70E-10,,0.17925469,0.171947935,0.169832293,,3.8,163.6005348,161.2435755,159.758367
3.82,1.79E-10,1.73E-10,1.71E-10,,0.179365772,0.172524738,0.170590715,,3.82,162.3096373,160.0035435,158.5328933
3.84,1.80E-10,1.73E-10,1.71E-10,,0.179549628,0.17313913,0.171375753,,3.84,161.0176677,158.7592192,157.3018607
3.86,1.80E-10,1.74E-10,1.72E-10,,0.179800815,0.173788967,0.172186114,,3.86,159.7241226,157.51034,156.0650824
3.88,1.80E-10,1.74E-10,1.73E-10,,0.18011433,0.174472192,0.173020508,,3.88,158.428536,156.2566581,154.8223807
3.9,1.80E-10,1.75E-10,1.74E-10,,0.180485547,0.175186818,0.173877653,,3.9,157.1304763,154.9979404,153.5735871
3.92,1.81E-10,1.76E-10,1.75E-10,,0.180910168,0.175930916,0.174756259,,3.92,155.8295441,153.7339679,152.3185425
3.94,1.81E-10,1.77E-10,1.76E-10,,0.181384177,0.176702603,0.17565503,,3.94,154.5253698,152.4645353,151.057097
3.96,1.82E-10,1.78E-10,1.77E-10,,0.181903801,0.177500029,0.176572653,,3.96,153.2176119,151.1894505,149.7891101
3.98,1.82E-10,1.78E-10,1.78E-10,,0.182465474,0.178321371,0.177507797,,3.98,151.9059551,149.9085348,148.5144508
4,1.83E-10,1.79E-10,1.78E-10,,0.183065809,0.179164823,0.178459109,,4,150.5901091,148.6216227,147.2329978
4.02,1.84E-10,1.80E-10,1.79E-10,,0.18370157,0.180028584,0.17942521,,4.02,149.2698075,147.3285614,145.9446396
4.04,1.84E-10,1.81E-10,1.80E-10,,0.184369649,0.180910857,0.180404687,,4.04,147.9448065,146.0292111,144.6492748
4.06,1.85E-10,1.82E-10,1.81E-10,,0.185067046,0.181809841,0.181396098,,4.06,146.6148845,144.7234451,143.3468121
4.08,1.86E-10,1.83E-10,1.82E-10,,0.18579085,0.182723722,0.182397965,,4.08,145.279841,143.4111494,142.037171
4.1,1.87E-10,1.84E-10,1.83E-10,,0.186538225,0.183650675,0.183408771,,4.1,143.9394963,142.0922235,140.7202814
4.12,1.87E-10,1.85E-10,1.84E-10,,0.187306393,0.184588853,0.184426962,,4.12,142.5936906,140.7665797,139.3960847
4.14,1.88E-10,1.86E-10,1.85E-10,,0.18809263,0.185536389,0.185450942,,4.14,141.2422842,139.434144,138.0645332
4.16,1.89E-10,1.86E-10,1.86E-10,,0.188894246,0.18649139,0.186479078,,4.16,139.8851567,138.0948557,136.7255911
4.18,1.90E-10,1.87E-10,1.88E-10,,0.189708585,0.18745194,0.187509693,,4.18,138.5222071,136.7486679,135.3792345
4.2,1.91E-10,1.88E-10,1.89E-10,,0.190533014,0.188416092,0.18854107,,4.2,137.1533531,135.3955478,134.0254515
4.22,1.91E-10,1.89E-10,1.90E-10,,0.191364917,0.189381872,0.189571456,,4.22,135.7785317,134.0354762,132.664243
4.24,1.92E-10,1.90E-10,1.91E-10,,0.192201695,0.19034728,0.190599058,,4.24,134.3976983,132.6684488,131.2956226
4.26,1.93E-10,1.91E-10,1.92E-10,,0.193040759,0.191310288,0.191622046,,4.26,133.0108273,131.2944754,129.9196166
4.28,1.94E-10,1.92E-10,1.93E-10,,0.19387953,0.192268844,0.192638561,,4.28,131.6179114,129.9135806,128.5362651
4.3,1.95E-10,1.93E-10,1.94E-10,,0.194715439,0.193220871,0.193646711,,4.3,130.218962,128.525804,127.1456213
4.32,1.96E-10,1.94E-10,1.95E-10,,0.195545926,0.194164275,0.194644578,,4.32,128.8140091,127.1312001,125.7477525
4.34,1.96E-10,1.95E-10,1.96E-10,,0.196368443,0.195096943,0.195630225,,4.34,127.4031007,125.7298385,124.3427394
4.36,1.97E-10,1.96E-10,1.97E-10,,0.197180455,0.196016752,0.196601696,,4.36,125.9863035,124.3218041,122.9306772
4.38,1.98E-10,1.97E-10,1.98E-10,,0.197979446,0.196921572,0.197557024,,4.38,124.5637021,122.9071973,121.511675
4.4,1.99E-10,1.98E-10,1.98E-10,,0.19876292,0.197809272,0.198494238,,4.4,123.1353994,121.4861335,120.0858561
4.42,2.00E-10,1.99E-10,1.99E-10,,0.199528409,0.198677723,0.199411367,,4.42,121.7015161,120.0587438,118.653358
4.44,2.00E-10,2.00E-10,2.00E-10,,0.200273477,0.199524812,0.200306449,,4.44,120.2621904,118.6251743,117.2143324
4.46,2.01E-10,2.00E-10,2.01E-10,,0.200995726,0.200348441,0.201177537,,4.46,118.817578,117.1855865,115.7689451
4.48,2.02E-10,2.01E-10,2.02E-10,,0.201692807,0.201146541,0.202022708,,4.48,117.3678519,115.7401567,114.3173758
